Date,AQI
09-08-2022,123
10-08-2022,120
11-08-2022,103
12-08-2022,110
13-08-2022,106
14-08-2022,97
15-08-2022,74
16-08-2022,78
17-08-2022,122
18-08-2022,110
19-08-2022,124
20-08-2022,156
21-08-2022,134
22-08-2022,143
23-08-2022,133
24-08-2022,140
25-08-2022,156
26-08-2022,107
27-08-2022,28
28-08-2022,36
29-08-2022,45
30-08-2022,47
31-08-2022,30
01-09-2022,19
02-09-2022,24
03-09-2022,29
04-09-2022,26
05-09-2022,34
06-09-2022,22
07-09-2022,27
08-09-2022,30
09-09-2022,68
11-09-2022,49
13-09-2022,45
14-09-2022,45
15-09-2022,39
16-09-2022,46
17-09-2022,50
18-09-2022,47
19-09-2022,31
20-09-2022,37
21-09-2022,43
22-09-2022,44
23-09-2022,46
24-09-2022,51
25-09-2022,51
26-09-2022,46
27-09-2022,52
28-09-2022,55
29-09-2022,47
30-09-2022,37
01-10-2022,34
02-10-2022,37
03-10-2022,23
04-10-2022,34
05-10-2022,47
06-10-2022,60
07-10-2022,57
08-10-2022,48
09-10-2022,37
10-10-2022,31
12-10-2022,14
13-10-2022,34
14-10-2022,28
15-10-2022,18
16-10-2022,16
17-10-2022,16
18-10-2022,25
19-10-2022,34
20-10-2022,22
21-10-2022,21
22-10-2022,41
23-10-2022,38
24-10-2022,33
25-10-2022,196
26-10-2022,56
27-10-2022,98
28-10-2022,95
29-10-2022,52
30-10-2022,36
31-10-2022,67
01-11-2022,68
02-11-2022,37
04-11-2022,28
05-11-2022,14
06-11-2022,21
07-11-2022,36
08-11-2022,40
09-11-2022,37
10-11-2022,38
11-11-2022,40
12-11-2022,16
13-11-2022,31
14-11-2022,18
15-11-2022,24
16-11-2022,76
17-11-2022,113
18-11-2022,116
19-11-2022,99
20-11-2022,95
21-11-2022,132
22-11-2022,94
23-11-2022,74
24-11-2022,67
25-11-2022,77
26-11-2022,54
27-11-2022,51
28-11-2022,68
29-11-2022,94
30-11-2022,97
01-12-2022,63
02-12-2022,33
03-12-2022,22
04-12-2022,16
05-12-2022,21
06-12-2022,121
07-12-2022,246
08-12-2022,234
10-12-2022,33
11-12-2022,52
12-12-2022,31
13-12-2022,33
14-12-2022,39
15-12-2022,19
16-12-2022,31
17-12-2022,51
18-12-2022,87
19-12-2022,56
20-12-2022,68
21-12-2022,64
22-12-2022,54
23-12-2022,103
24-12-2022,117
25-12-2022,62
26-12-2022,15
27-12-2022,41
28-12-2022,25
29-12-2022,32
30-12-2022,33
31-12-2022,44
01-01-2023,45
02-01-2023,45
03-01-2023,54
04-01-2023,75
05-01-2023,64
06-01-2023,71
07-01-2023,59
08-01-2023,81
09-01-2023,119
10-01-2023,61
12-01-2023,68
13-01-2023,58
14-01-2023,50
15-01-2023,14
16-01-2023,16
17-01-2023,32
18-01-2023,46
19-01-2023,61
20-01-2023,66
22-01-2023,72
23-01-2023,74
24-01-2023,24
25-01-2023,48
26-01-2023,100
27-01-2023,103
28-01-2023,41
29-01-2023,87
30-01-2023,67
31-01-2023,59
01-02-2023,63
02-02-2023,30
03-02-2023,26
04-02-2023,33
05-02-2023,94
06-02-2023,44
07-02-2023,52
08-02-2023,37
09-02-2023,29
10-02-2023,39
11-02-2023,59
12-02-2023,99
13-02-2023,95
14-02-2023,66
15-02-2023,76
16-02-2023,83
17-02-2023,83
19-02-2023,49
20-02-2023,42
21-02-2023,44
22-02-2023,80
23-02-2023,74
24-02-2023,58
25-02-2023,37
26-02-2023,38
27-02-2023,54
28-02-2023,42
01-03-2023,47
02-03-2023,52
03-03-2023,60
04-03-2023,62
05-03-2023,51
06-03-2023,47
07-03-2023,52
08-03-2023,52
09-03-2023,54
10-03-2023,61
11-03-2023,65
12-03-2023,53
13-03-2023,55
14-03-2023,60
15-03-2023,69
16-03-2023,45
17-03-2023,51
18-03-2023,42
19-03-2023,25
20-03-2023,15
21-03-2023,15
22-03-2023,23
23-03-2023,26
24-03-2023,20
25-03-2023,17
26-03-2023,22
27-03-2023,31
28-03-2023,39
29-03-2023,53
30-03-2023,61
31-03-2023,57
01-04-2023,50
02-04-2023,36
03-04-2023,24
04-04-2023,16
05-04-2023,20
07-04-2023,18
08-04-2023,40
09-04-2023,37
10-04-2023,35
11-04-2023,46
12-04-2023,42
13-04-2023,62
14-04-2023,67
15-04-2023,45
16-04-2023,52
17-04-2023,43
18-04-2023,37
19-04-2023,33
20-04-2023,30
21-04-2023,27
22-04-2023,31
23-04-2023,40
26-04-2023,48
27-04-2023,54
28-04-2023,43
29-04-2023,28
01-05-2023,25
03-05-2023,26
06-05-2023,52
07-05-2023,44
08-05-2023,46
09-05-2023,120
10-05-2023,110
11-05-2023,22
12-05-2023,19
13-05-2023,21
14-05-2023,18
15-05-2023,18
16-05-2023,124
17-05-2023,74
18-05-2023,47
26-05-2023,23
28-05-2023,80
29-05-2023,86
30-05-2023,99
31-05-2023,99
02-06-2023,127
03-06-2023,126
04-06-2023,43
05-06-2023,36
06-06-2023,54
08-06-2023,70
09-06-2023,62
10-06-2023,76
13-06-2023,32
14-06-2023,78
15-06-2023,87
16-06-2023,90
17-06-2023,34
18-06-2023,42
19-06-2023,41
20-06-2023,41
21-06-2023,37
22-06-2023,50
23-06-2023,48
25-06-2023,54
26-06-2023,29
27-06-2023,30
28-06-2023,40
30-06-2023,84
06-07-2023,21
07-07-2023,24
08-07-2023,31
09-07-2023,36
10-07-2023,53
11-07-2023,74
12-07-2023,44
13-07-2023,43
14-07-2023,30
15-07-2023,37
16-07-2023,85
17-07-2023,40
18-07-2023,41
19-07-2023,84
21-07-2023,19
22-07-2023,94
23-07-2023,60
24-07-2023,33
25-07-2023,46
26-07-2023,33
27-07-2023,37
28-07-2023,48
29-07-2023,55
30-07-2023,57
31-07-2023,55
01-08-2023,55
02-08-2023,59
03-08-2023,57
04-08-2023,52
05-08-2023,49
06-08-2023,24
07-08-2023,52
08-08-2023,21
10-08-2023,84
11-08-2023,56
13-08-2023,47
15-08-2023,36
16-08-2023,30
17-08-2023,41
18-08-2023,30
19-08-2023,21
20-08-2023,23
21-08-2023,34
22-08-2023,39
23-08-2023,32
24-08-2023,33
25-08-2023,32
29-08-2023,20
30-08-2023,33
31-08-2023,34
02-09-2023,25
03-09-2023,31
05-09-2023,63
06-09-2023,36
07-09-2023,32
08-09-2023,25
09-09-2023,27
12-09-2023,34
13-09-2023,34
14-09-2023,20
16-09-2023,23
17-09-2023,17
19-09-2023,30
20-09-2023,22
21-09-2023,27
22-09-2023,26
26-09-2023,40
28-09-2023,22
29-09-2023,30
30-09-2023,22
01-10-2023,22
02-10-2023,30
03-10-2023,24
04-10-2023,25
05-10-2023,30
07-10-2023,47
08-10-2023,36
09-10-2023,21
10-10-2023,17
11-10-2023,21
12-10-2023,26
13-10-2023,31
14-10-2023,27
15-10-2023,29
16-10-2023,20
18-10-2023,59
19-10-2023,90
20-10-2023,85
21-10-2023,55
22-10-2023,56
23-10-2023,57
24-10-2023,43
25-10-2023,26
26-10-2023,57
27-10-2023,93
28-10-2023,83
29-10-2023,69
30-10-2023,21
01-11-2023,66
03-11-2023,25
04-11-2023,14
05-11-2023,14
06-11-2023,32
08-11-2023,28
10-11-2023,38
11-11-2023,62
12-11-2023,120
13-11-2023,208
14-11-2023,95
15-11-2023,70
16-11-2023,62
17-11-2023,52
18-11-2023,41
19-11-2023,14
20-11-2023,20
21-11-2023,55
22-11-2023,39
23-11-2023,14
24-11-2023,32
25-11-2023,26
26-11-2023,26
27-11-2023,34
28-11-2023,31
29-11-2023,33
30-11-2023,15
01-12-2023,27
02-12-2023,61
03-12-2023,59
04-12-2023,40
05-12-2023,26
06-12-2023,34
07-12-2023,28
08-12-2023,32
09-12-2023,38
10-12-2023,32
11-12-2023,45
12-12-2023,54
13-12-2023,62
15-12-2023,102
16-12-2023,63
17-12-2023,29
18-12-2023,28
19-12-2023,68
20-12-2023,81
21-12-2023,105
22-12-2023,127
23-12-2023,115
24-12-2023,92
25-12-2023,79
26-12-2023,38
27-12-2023,46
