Date,AQI
23-09-2019,31
24-09-2019,28
25-09-2019,27
26-09-2019,22
27-09-2019,34
28-09-2019,39
29-09-2019,51
30-09-2019,48
01-10-2019,49
04-10-2019,40
05-10-2019,45
06-10-2019,40
10-10-2019,41
11-10-2019,55
12-10-2019,56
16-10-2019,39
17-10-2019,27
18-10-2019,32
19-10-2019,29
20-10-2019,30
21-10-2019,39
26-10-2019,41
27-10-2019,44
28-10-2019,42
29-10-2019,50
30-10-2019,39
31-10-2019,34
01-11-2019,39
02-11-2019,51
03-11-2019,68
04-11-2019,79
05-11-2019,99
06-11-2019,96
07-11-2019,87
08-11-2019,64
09-11-2019,66
10-11-2019,56
11-11-2019,84
12-11-2019,77
13-11-2019,67
14-11-2019,56
15-11-2019,41
16-11-2019,49
17-11-2019,55
18-11-2019,64
19-11-2019,43
20-11-2019,51
21-11-2019,48
22-11-2019,72
23-11-2019,69
24-11-2019,64
25-11-2019,67
26-11-2019,68
27-11-2019,50
28-11-2019,49
29-11-2019,43
30-11-2019,60
01-12-2019,36
02-12-2019,34
03-12-2019,36
04-12-2019,52
05-12-2019,70
06-12-2019,110
07-12-2019,79
08-12-2019,46
09-12-2019,45
10-12-2019,55
11-12-2019,53
12-12-2019,75
13-12-2019,69
14-12-2019,50
15-12-2019,36
16-12-2019,47
17-12-2019,41
24-12-2019,59
29-12-2019,64
31-12-2019,64
01-01-2020,63
02-01-2020,52
03-01-2020,48
04-01-2020,70
05-01-2020,82
06-01-2020,43
07-01-2020,40
08-01-2020,37
09-01-2020,62
10-01-2020,80
11-01-2020,55
12-01-2020,65
13-01-2020,76
14-01-2020,101
15-01-2020,90
16-01-2020,68
17-01-2020,64
18-01-2020,56
19-01-2020,27
20-01-2020,36
21-01-2020,60
22-01-2020,53
23-01-2020,60
24-01-2020,59
25-01-2020,68
26-01-2020,80
27-01-2020,77
28-01-2020,77
29-01-2020,78
30-01-2020,79
31-01-2020,97
01-02-2020,82
04-02-2020,46
05-02-2020,39
06-02-2020,68
07-02-2020,66
08-02-2020,74
09-02-2020,69
10-02-2020,43
11-02-2020,51
12-02-2020,58
13-02-2020,66
14-02-2020,86
15-02-2020,105
16-02-2020,94
17-02-2020,77
18-02-2020,95
19-02-2020,82
20-02-2020,79
21-02-2020,62
22-02-2020,55
23-02-2020,53
24-02-2020,48
25-02-2020,65
26-02-2020,71
27-02-2020,51
28-02-2020,59
29-02-2020,62
01-03-2020,63
03-03-2020,78
04-03-2020,79
05-03-2020,90
06-03-2020,60
07-03-2020,55
08-03-2020,53
09-03-2020,55
10-03-2020,54
11-03-2020,51
12-03-2020,52
13-03-2020,54
14-03-2020,51
15-03-2020,51
16-03-2020,41
17-03-2020,31
18-03-2020,37
19-03-2020,58
20-03-2020,67
21-03-2020,61
22-03-2020,48
23-03-2020,53
24-03-2020,58
25-03-2020,52
26-03-2020,63
27-03-2020,39
28-03-2020,43
29-03-2020,46
30-03-2020,50
31-03-2020,34
01-04-2020,41
02-04-2020,50
03-04-2020,53
04-04-2020,50
05-04-2020,49
06-04-2020,34
07-04-2020,33
08-04-2020,23
09-04-2020,35
10-04-2020,21
11-04-2020,33
12-04-2020,45
13-04-2020,47
14-04-2020,63
15-04-2020,85
17-04-2020,56
18-04-2020,55
19-04-2020,50
20-04-2020,35
21-04-2020,39
22-04-2020,47
23-04-2020,33
24-04-2020,26
25-04-2020,38
26-04-2020,34
27-04-2020,24
28-04-2020,68
30-04-2020,35
02-05-2020,34
05-05-2020,84
06-05-2020,56
07-05-2020,72
08-05-2020,63
09-05-2020,55
10-05-2020,59
11-05-2020,59
12-05-2020,61
13-05-2020,52
14-05-2020,83
15-05-2020,59
16-05-2020,62
17-05-2020,53
18-05-2020,64
19-05-2020,58
20-05-2020,48
21-05-2020,46
22-05-2020,53
23-05-2020,60
24-05-2020,49
25-05-2020,57
26-05-2020,57
27-05-2020,42
28-05-2020,39
29-05-2020,49
30-05-2020,47
31-05-2020,41
01-06-2020,38
02-06-2020,33
03-06-2020,34
04-06-2020,32
05-06-2020,38
06-06-2020,30
07-06-2020,34
08-06-2020,33
09-06-2020,44
10-06-2020,41
11-06-2020,36
12-06-2020,31
13-06-2020,34
14-06-2020,28
15-06-2020,28
16-06-2020,32
17-06-2020,37
18-06-2020,33
19-06-2020,43
20-06-2020,37
21-06-2020,34
22-06-2020,31
24-06-2020,46
25-06-2020,31
26-06-2020,38
27-06-2020,33
28-06-2020,28
29-06-2020,30
30-06-2020,28
01-07-2020,34
02-07-2020,26
03-07-2020,28
04-07-2020,26
05-07-2020,33
06-07-2020,36
08-07-2020,29
09-07-2020,28
10-07-2020,26
11-07-2020,34
12-07-2020,30
13-07-2020,31
14-07-2020,29
15-07-2020,31
16-07-2020,29
17-07-2020,27
18-07-2020,26
19-07-2020,26
20-07-2020,27
21-07-2020,27
23-07-2020,38
24-07-2020,30
25-07-2020,32
26-07-2020,33
27-07-2020,30
28-07-2020,30
29-07-2020,30
30-07-2020,32
02-08-2020,30
04-08-2020,24
05-08-2020,27
06-08-2020,37
07-08-2020,39
08-08-2020,42
09-08-2020,44
10-08-2020,37
11-08-2020,37
12-08-2020,37
13-08-2020,39
14-08-2020,49
15-08-2020,36
16-08-2020,37
17-08-2020,37
18-08-2020,32
19-08-2020,26
20-08-2020,33
21-08-2020,27
22-08-2020,27
23-08-2020,27
24-08-2020,31
25-08-2020,31
26-08-2020,37
27-08-2020,41
28-08-2020,38
29-08-2020,39
30-08-2020,28
31-08-2020,29
01-09-2020,36
02-09-2020,28
04-09-2020,37
06-09-2020,47
08-09-2020,31
09-09-2020,31
10-09-2020,30
11-09-2020,31
12-09-2020,31
13-09-2020,30
14-09-2020,27
15-09-2020,31
16-09-2020,24
17-09-2020,26
18-09-2020,23
19-09-2020,28
20-09-2020,28
21-09-2020,29
22-09-2020,29
23-09-2020,32
24-09-2020,38
25-09-2020,30
26-09-2020,28
27-09-2020,37
28-09-2020,31
29-09-2020,32
30-09-2020,35
01-10-2020,31
02-10-2020,42
03-10-2020,31
04-10-2020,29
05-10-2020,30
06-10-2020,40
07-10-2020,44
08-10-2020,54
09-10-2020,53
10-10-2020,44
11-10-2020,34
12-10-2020,44
13-10-2020,44
14-10-2020,41
15-10-2020,32
16-10-2020,57
17-10-2020,78
18-10-2020,60
19-10-2020,42
20-10-2020,46
21-10-2020,31
23-10-2020,43
25-10-2020,43
29-10-2020,92
30-10-2020,94
31-10-2020,187
01-11-2020,133
02-11-2020,141
03-11-2020,120
04-11-2020,103
05-11-2020,73
07-11-2020,41
08-11-2020,51
09-11-2020,126
10-11-2020,103
11-11-2020,98
12-11-2020,71
14-11-2020,35
15-11-2020,49
16-11-2020,34
17-11-2020,34
18-11-2020,34
19-11-2020,45
22-11-2020,66
28-11-2020,41
30-11-2020,44
01-12-2020,46
02-12-2020,60
03-12-2020,49
04-12-2020,33
05-12-2020,35
06-12-2020,34
08-12-2020,24
09-12-2020,30
15-12-2020,73
16-12-2020,65
17-12-2020,46
18-12-2020,56
19-12-2020,66
22-12-2020,86
28-12-2020,110
30-12-2020,68
31-12-2020,46
01-01-2021,62
06-01-2021,44
08-01-2021,32
09-01-2021,29
13-01-2021,54
15-01-2021,48
16-01-2021,59
19-01-2021,171
20-01-2021,73
21-01-2021,73
22-01-2021,59
26-01-2021,84
02-02-2021,80
03-02-2021,98
04-02-2021,96
05-02-2021,102
06-02-2021,115
07-02-2021,99
09-02-2021,103
10-02-2021,94
11-02-2021,164
12-02-2021,247
13-02-2021,86
16-02-2021,92
17-02-2021,158
20-02-2021,56
23-02-2021,40
24-02-2021,162
27-02-2021,268
28-02-2021,157
01-03-2021,99
03-03-2021,84
05-03-2021,77
06-03-2021,88
07-03-2021,96
09-03-2021,79
10-03-2021,62
15-03-2021,81
16-03-2021,92
19-03-2021,160
20-03-2021,95
23-03-2021,85
24-03-2021,68
25-03-2021,75
26-03-2021,113
27-03-2021,156
29-03-2021,171
30-03-2021,85
02-04-2021,86
03-04-2021,88
04-04-2021,108
05-04-2021,154
08-04-2021,104
09-04-2021,106
10-04-2021,168
11-04-2021,82
12-04-2021,61
13-04-2021,48
14-04-2021,64
15-04-2021,51
16-04-2021,79
17-04-2021,85
20-04-2021,73
21-04-2021,80
23-04-2021,74
25-04-2021,48
27-04-2021,78
28-04-2021,154
06-05-2021,50
07-05-2021,48
10-05-2021,43
13-05-2021,37
14-05-2021,30
16-05-2021,31
18-05-2021,29
02-06-2021,36
03-06-2021,35
04-06-2021,31
05-06-2021,26
06-06-2021,33
07-06-2021,32
08-06-2021,55
09-06-2021,43
10-06-2021,36
11-06-2021,33
12-06-2021,32
13-06-2021,24
14-06-2021,24
15-06-2021,33
16-06-2021,46
17-06-2021,54
20-06-2021,54
21-06-2021,64
22-06-2021,51
23-06-2021,71
24-06-2021,68
25-06-2021,77
26-06-2021,52
27-06-2021,29
28-06-2021,33
29-06-2021,52
30-06-2021,46
01-07-2021,40
02-07-2021,35
03-07-2021,40
04-07-2021,33
05-07-2021,30
06-07-2021,32
07-07-2021,37
09-07-2021,36
10-07-2021,31
11-07-2021,34
12-07-2021,36
13-07-2021,31
14-07-2021,30
15-07-2021,30
16-07-2021,35
17-07-2021,34
18-07-2021,27
19-07-2021,35
20-07-2021,38
21-07-2021,33
22-07-2021,34
23-07-2021,32
24-07-2021,31
25-07-2021,33
26-07-2021,29
27-07-2021,38
28-07-2021,33
29-07-2021,36
30-07-2021,38
31-07-2021,39
01-08-2021,34
02-08-2021,36
03-08-2021,36
04-08-2021,29
05-08-2021,35
06-08-2021,34
07-08-2021,33
08-08-2021,34
09-08-2021,36
10-08-2021,34
11-08-2021,45
12-08-2021,39
13-08-2021,40
14-08-2021,48
15-08-2021,47
16-08-2021,44
17-08-2021,43
18-08-2021,32
19-08-2021,31
20-08-2021,41
21-08-2021,48
22-08-2021,37
23-08-2021,33
25-08-2021,36
26-08-2021,45
27-08-2021,33
28-08-2021,26
29-08-2021,32
30-08-2021,42
31-08-2021,39
01-09-2021,44
02-09-2021,38
03-09-2021,29
04-09-2021,30
05-09-2021,32
06-09-2021,32
07-09-2021,26
08-09-2021,26
09-09-2021,33
10-09-2021,36
11-09-2021,40
12-09-2021,29
13-09-2021,31
14-09-2021,36
15-09-2021,47
16-09-2021,50
17-09-2021,55
18-09-2021,61
19-09-2021,53
20-09-2021,55
21-09-2021,42
22-09-2021,35
23-09-2021,33
24-09-2021,36
25-09-2021,38
28-09-2021,32
29-09-2021,42
30-09-2021,36
01-10-2021,43
03-10-2021,32
04-10-2021,34
05-10-2021,46
06-10-2021,30
07-10-2021,43
08-10-2021,36
09-10-2021,26
10-10-2021,30
11-10-2021,30
12-10-2021,36
13-10-2021,37
14-10-2021,37
15-10-2021,48
16-10-2021,58
17-10-2021,53
18-10-2021,52
19-10-2021,52
20-10-2021,79
21-10-2021,65
22-10-2021,59
23-10-2021,42
24-10-2021,48
25-10-2021,75
26-10-2021,95
27-10-2021,118
28-10-2021,129
30-10-2021,45
31-10-2021,49
01-11-2021,43
02-11-2021,44
03-11-2021,39
04-11-2021,47
05-11-2021,47
06-11-2021,61
07-11-2021,59
08-11-2021,100
09-11-2021,140
10-11-2021,109
11-11-2021,108
12-11-2021,56
13-11-2021,37
14-11-2021,53
15-11-2021,48
16-11-2021,40
17-11-2021,44
18-11-2021,33
19-11-2021,35
20-11-2021,37
21-11-2021,67
22-11-2021,48
23-11-2021,45
24-11-2021,47
26-11-2021,60
27-11-2021,72
28-11-2021,62
29-11-2021,35
30-11-2021,39
01-12-2021,44
02-12-2021,79
03-12-2021,97
04-12-2021,50
05-12-2021,48
06-12-2021,79
07-12-2021,165
08-12-2021,88
09-12-2021,59
10-12-2021,46
11-12-2021,44
12-12-2021,40
13-12-2021,42
14-12-2021,45
15-12-2021,71
16-12-2021,127
17-12-2021,141
18-12-2021,136
19-12-2021,118
20-12-2021,79
21-12-2021,98
22-12-2021,105
23-12-2021,124
24-12-2021,146
25-12-2021,91
26-12-2021,79
27-12-2021,77
28-12-2021,62
29-12-2021,58
30-12-2021,75
31-12-2021,40
01-01-2022,37
02-01-2022,37
03-01-2022,45
04-01-2022,69
05-01-2022,83
06-01-2022,70
07-01-2022,48
08-01-2022,43
09-01-2022,49
10-01-2022,51
11-01-2022,43
12-01-2022,60
13-01-2022,58
14-01-2022,47
15-01-2022,56
16-01-2022,47
17-01-2022,38
18-01-2022,42
19-01-2022,55
20-01-2022,69
21-01-2022,80
22-01-2022,68
23-01-2022,66
24-01-2022,44
25-01-2022,87
26-01-2022,80
27-01-2022,66
28-01-2022,68
29-01-2022,98
30-01-2022,87
31-01-2022,63
01-02-2022,90
02-02-2022,102
03-02-2022,104
04-02-2022,92
05-02-2022,73
06-02-2022,75
07-02-2022,60
08-02-2022,93
09-02-2022,83
10-02-2022,81
11-02-2022,86
12-02-2022,47
13-02-2022,63
14-02-2022,77
15-02-2022,79
16-02-2022,88
18-02-2022,77
19-02-2022,80
20-02-2022,77
21-02-2022,103
23-02-2022,69
24-02-2022,45
25-02-2022,70
26-02-2022,77
27-02-2022,58
28-02-2022,55
01-03-2022,52
02-03-2022,54
03-03-2022,77
04-03-2022,87
05-03-2022,87
06-03-2022,70
10-03-2022,87
11-03-2022,111
12-03-2022,106
13-03-2022,114
14-03-2022,134
15-03-2022,163
16-03-2022,166
17-03-2022,146
18-03-2022,139
19-03-2022,126
20-03-2022,94
21-03-2022,100
22-03-2022,98
23-03-2022,104
24-03-2022,129
25-03-2022,131
26-03-2022,104
27-03-2022,105
28-03-2022,135
29-03-2022,108
30-03-2022,115
31-03-2022,96
01-04-2022,114
02-04-2022,100
03-04-2022,98
04-04-2022,96
05-04-2022,96
06-04-2022,101
07-04-2022,106
08-04-2022,106
09-04-2022,82
10-04-2022,60
11-04-2022,84
12-04-2022,52
13-04-2022,60
14-04-2022,32
15-04-2022,33
16-04-2022,47
17-04-2022,73
18-04-2022,52
19-04-2022,44
20-04-2022,83
21-04-2022,136
22-04-2022,120
23-04-2022,86
24-04-2022,43
25-04-2022,71
26-04-2022,90
27-04-2022,114
28-04-2022,106
29-04-2022,94
30-04-2022,86
01-05-2022,73
02-05-2022,61
03-05-2022,59
04-05-2022,51
05-05-2022,33
06-05-2022,49
07-05-2022,60
08-05-2022,63
09-05-2022,72
10-05-2022,71
11-05-2022,68
13-05-2022,32
14-05-2022,41
15-05-2022,54
16-05-2022,48
17-05-2022,28
18-05-2022,30
19-05-2022,30
20-05-2022,81
21-05-2022,53
22-05-2022,66
23-05-2022,27
24-05-2022,38
25-05-2022,43
26-05-2022,52
27-05-2022,41
28-05-2022,48
29-05-2022,34
30-05-2022,32
31-05-2022,31
01-06-2022,30
02-06-2022,41
03-06-2022,45
04-06-2022,39
05-06-2022,55
06-06-2022,40
07-06-2022,30
08-06-2022,30
09-06-2022,28
10-06-2022,31
11-06-2022,29
12-06-2022,29
13-06-2022,28
14-06-2022,32
15-06-2022,33
16-06-2022,33
17-06-2022,29
18-06-2022,31
19-06-2022,30
20-06-2022,36
21-06-2022,31
22-06-2022,27
23-06-2022,34
24-06-2022,33
25-06-2022,32
26-06-2022,46
27-06-2022,48
28-06-2022,43
29-06-2022,30
30-06-2022,28
01-07-2022,32
02-07-2022,38
03-07-2022,48
04-07-2022,36
05-07-2022,29
06-07-2022,33
07-07-2022,35
08-07-2022,36
09-07-2022,41
10-07-2022,31
12-07-2022,31
13-07-2022,40
14-07-2022,31
15-07-2022,37
16-07-2022,36
17-07-2022,30
18-07-2022,32
19-07-2022,40
20-07-2022,44
21-07-2022,40
22-07-2022,46
23-07-2022,45
24-07-2022,41
25-07-2022,40
26-07-2022,39
27-07-2022,44
28-07-2022,36
29-07-2022,48
30-07-2022,38
01-08-2022,35
09-08-2022,73
10-08-2022,42
11-08-2022,41
12-08-2022,41
15-08-2022,43
17-08-2022,46
18-08-2022,37
19-08-2022,36
20-08-2022,36
21-08-2022,40
23-08-2022,39
24-08-2022,35
25-08-2022,33
28-08-2022,43
29-08-2022,42
30-08-2022,55
31-08-2022,45
01-09-2022,44
02-09-2022,47
03-09-2022,45
04-09-2022,49
05-09-2022,52
06-09-2022,46
07-09-2022,41
08-09-2022,37
09-09-2022,40
10-09-2022,39
11-09-2022,37
12-09-2022,39
13-09-2022,39
14-09-2022,39
15-09-2022,37
16-09-2022,37
17-09-2022,40
18-09-2022,42
19-09-2022,40
20-09-2022,43
21-09-2022,39
22-09-2022,44
23-09-2022,43
24-09-2022,42
25-09-2022,40
26-09-2022,39
27-09-2022,40
28-09-2022,43
29-09-2022,39
30-09-2022,50
01-10-2022,46
02-10-2022,51
03-10-2022,42
04-10-2022,47
05-10-2022,53
06-10-2022,50
07-10-2022,47
08-10-2022,41
09-10-2022,46
10-10-2022,46
11-10-2022,33
12-10-2022,38
13-10-2022,39
14-10-2022,44
15-10-2022,38
16-10-2022,45
17-10-2022,33
18-10-2022,43
19-10-2022,39
20-10-2022,54
21-10-2022,46
22-10-2022,56
23-10-2022,80
24-10-2022,70
25-10-2022,88
26-10-2022,82
27-10-2022,88
28-10-2022,71
29-10-2022,58
30-10-2022,59
31-10-2022,70
01-11-2022,99
02-11-2022,39
03-11-2022,36
04-11-2022,36
05-11-2022,43
06-11-2022,44
07-11-2022,80
08-11-2022,86
09-11-2022,85
10-11-2022,94
11-11-2022,92
12-11-2022,98
13-11-2022,31
14-11-2022,34
15-11-2022,47
16-11-2022,95
17-11-2022,117
18-11-2022,94
19-11-2022,97
20-11-2022,107
21-11-2022,123
22-11-2022,117
23-11-2022,54
24-11-2022,34
25-11-2022,68
26-11-2022,60
27-11-2022,65
28-11-2022,84
29-11-2022,153
30-11-2022,150
01-12-2022,119
02-12-2022,74
03-12-2022,56
04-12-2022,47
05-12-2022,70
06-12-2022,142
07-12-2022,143
08-12-2022,118
09-12-2022,93
10-12-2022,75
13-12-2022,40
14-12-2022,33
15-12-2022,43
16-12-2022,61
17-12-2022,69
18-12-2022,99
20-12-2022,99
21-12-2022,74
22-12-2022,78
23-12-2022,94
24-12-2022,87
25-12-2022,78
26-12-2022,33
27-12-2022,30
28-12-2022,34
29-12-2022,41
30-12-2022,51
31-12-2022,62
01-01-2023,94
02-01-2023,75
03-01-2023,66
04-01-2023,78
05-01-2023,81
06-01-2023,76
07-01-2023,87
08-01-2023,130
09-01-2023,151
10-01-2023,102
11-01-2023,90
12-01-2023,89
13-01-2023,89
14-01-2023,101
15-01-2023,89
16-01-2023,70
17-01-2023,81
18-01-2023,57
20-01-2023,87
21-01-2023,83
22-01-2023,81
23-01-2023,72
24-01-2023,59
25-01-2023,62
26-01-2023,76
27-01-2023,88
28-01-2023,77
29-01-2023,77
30-01-2023,80
31-01-2023,69
01-02-2023,80
02-02-2023,95
03-02-2023,90
04-02-2023,67
05-02-2023,80
06-02-2023,75
07-02-2023,82
08-02-2023,100
09-02-2023,108
10-02-2023,89
11-02-2023,89
12-02-2023,96
13-02-2023,87
14-02-2023,93
15-02-2023,116
16-02-2023,102
17-02-2023,89
18-02-2023,94
19-02-2023,84
20-02-2023,66
21-02-2023,94
22-02-2023,101
23-02-2023,106
24-02-2023,76
25-02-2023,81
26-02-2023,92
27-02-2023,91
28-02-2023,85
01-03-2023,81
02-03-2023,74
03-03-2023,99
04-03-2023,94
05-03-2023,106
06-03-2023,85
07-03-2023,80
08-03-2023,79
09-03-2023,75
10-03-2023,86
11-03-2023,92
12-03-2023,76
13-03-2023,56
14-03-2023,71
15-03-2023,82
16-03-2023,81
17-03-2023,65
18-03-2023,43
19-03-2023,44
20-03-2023,49
21-03-2023,46
22-03-2023,74
23-03-2023,41
24-03-2023,56
25-03-2023,52
26-03-2023,51
27-03-2023,49
28-03-2023,68
29-03-2023,74
30-03-2023,66
31-03-2023,52
01-04-2023,67
02-04-2023,54
03-04-2023,52
04-04-2023,52
05-04-2023,77
06-04-2023,64
07-04-2023,59
08-04-2023,84
09-04-2023,48
10-04-2023,43
11-04-2023,44
12-04-2023,46
13-04-2023,80
14-04-2023,102
15-04-2023,79
16-04-2023,96
17-04-2023,88
18-04-2023,83
19-04-2023,72
20-04-2023,86
21-04-2023,75
22-04-2023,70
23-04-2023,61
24-04-2023,71
25-04-2023,59
26-04-2023,69
27-04-2023,61
28-04-2023,54
29-04-2023,51
30-04-2023,51
01-05-2023,33
02-05-2023,55
03-05-2023,38
04-05-2023,41
06-05-2023,51
07-05-2023,49
08-05-2023,55
09-05-2023,58
10-05-2023,64
11-05-2023,68
12-05-2023,69
13-05-2023,64
14-05-2023,57
15-05-2023,80
16-05-2023,80
17-05-2023,90
18-05-2023,72
19-05-2023,78
20-05-2023,67
22-05-2023,73
23-05-2023,84
24-05-2023,71
25-05-2023,60
26-05-2023,56
27-05-2023,57
28-05-2023,59
29-05-2023,68
30-05-2023,70
31-05-2023,81
01-06-2023,72
02-06-2023,62
03-06-2023,66
04-06-2023,67
07-06-2023,50
08-06-2023,45
09-06-2023,44
10-06-2023,43
11-06-2023,42
12-06-2023,41
13-06-2023,40
14-06-2023,52
15-06-2023,48
16-06-2023,50
17-06-2023,54
18-06-2023,61
19-06-2023,48
20-06-2023,59
21-06-2023,69
22-06-2023,68
23-06-2023,69
24-06-2023,63
25-06-2023,67
26-06-2023,62
27-06-2023,50
28-06-2023,48
29-06-2023,40
30-06-2023,41
01-07-2023,47
02-07-2023,52
03-07-2023,39
04-07-2023,32
05-07-2023,38
06-07-2023,31
07-07-2023,33
08-07-2023,32
09-07-2023,48
10-07-2023,45
11-07-2023,45
12-07-2023,47
13-07-2023,38
15-07-2023,36
16-07-2023,41
17-07-2023,44
18-07-2023,47
19-07-2023,46
20-07-2023,51
21-07-2023,64
22-07-2023,46
23-07-2023,44
24-07-2023,48
25-07-2023,45
26-07-2023,50
27-07-2023,46
28-07-2023,52
29-07-2023,46
30-07-2023,47
31-07-2023,47
01-08-2023,47
02-08-2023,53
03-08-2023,52
04-08-2023,51
05-08-2023,47
06-08-2023,48
07-08-2023,49
08-08-2023,50
09-08-2023,51
10-08-2023,56
11-08-2023,50
12-08-2023,56
13-08-2023,57
14-08-2023,47
15-08-2023,63
16-08-2023,67
17-08-2023,62
18-08-2023,49
19-08-2023,42
20-08-2023,48
21-08-2023,50
22-08-2023,54
23-08-2023,55
24-08-2023,57
25-08-2023,49
26-08-2023,46
27-08-2023,29
28-08-2023,38
29-08-2023,37
30-08-2023,36
31-08-2023,38
01-09-2023,34
02-09-2023,29
03-09-2023,41
04-09-2023,66
05-09-2023,51
06-09-2023,23
07-09-2023,26
08-09-2023,32
09-09-2023,30
10-09-2023,33
11-09-2023,30
12-09-2023,35
13-09-2023,35
14-09-2023,34
15-09-2023,28
16-09-2023,28
17-09-2023,26
18-09-2023,30
19-09-2023,30
20-09-2023,36
21-09-2023,32
22-09-2023,40
28-09-2023,33
29-09-2023,32
30-09-2023,32
01-10-2023,32
02-10-2023,48
03-10-2023,84
04-10-2023,81
05-10-2023,80
06-10-2023,74
07-10-2023,85
08-10-2023,77
09-10-2023,56
10-10-2023,48
11-10-2023,55
12-10-2023,63
13-10-2023,89
14-10-2023,82
15-10-2023,61
16-10-2023,67
17-10-2023,69
18-10-2023,83
19-10-2023,97
20-10-2023,116
21-10-2023,94
22-10-2023,100
23-10-2023,85
24-10-2023,72
25-10-2023,89
26-10-2023,81
27-10-2023,99
28-10-2023,88
29-10-2023,59
30-10-2023,47
31-10-2023,61
01-11-2023,81
02-11-2023,65
03-11-2023,34
04-11-2023,36
06-11-2023,35
07-11-2023,56
08-11-2023,36
09-11-2023,37
10-11-2023,53
11-11-2023,79
12-11-2023,80
13-11-2023,144
14-11-2023,161
15-11-2023,153
16-11-2023,124
17-11-2023,87
18-11-2023,66
19-11-2023,65
20-11-2023,76
21-11-2023,59
22-11-2023,54
23-11-2023,32
24-11-2023,43
25-11-2023,33
26-11-2023,61
27-11-2023,44
28-11-2023,43
29-11-2023,38
30-11-2023,43
01-12-2023,46
02-12-2023,64
03-12-2023,41
04-12-2023,43
05-12-2023,50
06-12-2023,59
07-12-2023,66
08-12-2023,68
09-12-2023,58
10-12-2023,66
11-12-2023,69
12-12-2023,101
13-12-2023,87
14-12-2023,76
15-12-2023,80
16-12-2023,51
17-12-2023,45
18-12-2023,78
19-12-2023,90
20-12-2023,113
21-12-2023,75
23-12-2023,121
24-12-2023,99
25-12-2023,53
26-12-2023,50
27-12-2023,39
28-12-2023,44
29-12-2023,36
30-12-2023,40
31-12-2023,37
